time,x,y,speed,angle,angular speed
0.0,0.0,0.0,338.8713571325142,0.0,0.0
0.008333206176757812,2.8238538814090504,0.00298819466744904,339.11313193534653,0.0,0.0
0.016666412353515625,5.705481295766335,0.08062428697371826,346.3123263729756,0.0020133480429649353,0.24890999495983124
0.024999618530273438,8.65447927073759,0.23196212312904807,353.95590032151006,0.006040044128894806,0.4769099950790405
0.03333282470703125,11.660159190243963,0.44811984316199616,361.9573364253878,0.011696599423885345,0.6835100054740906
0.04166603088378906,14.731500442359252,0.718153891637743,370.2514242781916,0.018983006477355957,0.8691099882125854
0.049999237060546875,17.869461157503466,1.0517827775848831,378.7650130415425,0.02761165052652359,1.0346100330352783
0.05833244323730469,21.07285221916113,1.4394334265981796,387.44878138738164,0.037390775978565216,1.1815099716186523
0.0666656494140625,24.34201411816032,1.880826946061167,396.2566778872534,0.04832039028406143,1.311210036277771
0.07499885559082031,27.686543882166774,2.375017182184087,405.15214471074063,0.060208745300769806,1.4254100322723389
0.08333206176757812,31.096856460145002,2.9230717701195545,414.10719870232447,0.07286407798528671,1.5258100032806396
0.09166526794433594,34.57258740800642,3.5250266397583214,423.10080888681347,0.08638229221105576,1.614009976387024
0.09999847412109375,38.114089193209374,4.1807243798467795,432.0957118339673,0.1004757359623909,1.6915099620819092
0.10833168029785156,41.72210093670865,4.900150415399739,441.07928421222005,0.11514442414045334,1.7596099376678467
0.11666679382324219,45.39565253145397,5.673464756025746,450.0356652649158,0.13029249757528305,1.8195099830627441
0.125,49.12587409410417,6.511477499166515,458.9602942944612,0.14591992646455765,1.872309923171997
0.1333332061767578,52.92261759168093,7.413340019134642,467.82832209382076,0.16193083673715591,1.9189099073410034
0.14166641235351562,56.77616451515567,8.380010446350138,476.641391185835,0.17822939902544022,1.9601099491119385
0.14999961853027344,60.68612646717931,9.411281747978036,485.3926096000526,0.194911427795887,1.9966099262237549
0.15833282470703125,64.65375244741857,10.517334405237863,494.06323375716715,0.21168936043977737,2.028909921646118
0.16666603088378906,68.66908098411916,11.699150501810127,502.66303868643246,0.22894663363695145,2.057610034942627
0.17499923706054688,72.74206157240512,12.95562647265146,511.1743656805554,0.24629978090524673,2.0833098888397217
0.1833324432373047,76.86261125915928,14.287756378072626,519.5833846284024,0.2637488320469856,2.107609987258911
0.1916656494140625,81.03183360942504,15.705489713197677,527.8897273683365,0.281581349670887,2.130509853363037
0.1999988555908203,85.23977912807828,17.20993004306999,536.0931981771603,0.2995097413659096,2.1521098613739014
0.20833206176757812,89.48631435712596,18.80096786295695,544.198144920984,0.3176298812031746,2.17261004447937
0.21666526794433594,93.77156077793092,20.478591196228308,552.199364854727,0.3359417989850044,2.192009925842285
0.22499847412109375,98.08667246041242,22.253853103051497,560.1093538465685,0.3543495610356331,2.2104098796844482
0.23333168029785156,102.44024039529523,24.11560299515672,567.9225983907448,0.37285319715738297,2.227910041809082
0.2416667938232422,106.8137121201003,26.07597354449429,575.6329972450113,0.3915485814213753,2.2445099353790283
0.25,111.21692762521911,28.13399464401393,583.2392438662067,0.4104357436299324,2.260309934616089
0.2583332061767578,115.63978000427396,30.290417391300693,590.75709254277,0.42941875010728836,2.2753100395202637
0.2666664123535156,120.08338479893848,32.555312762841496,598.1764746176402,0.4484017565846443,2.2895100116729736
0.27499961853027344,124.53693191177095,34.91981087529514,605.5073245103528,0.4676724150776863,2.3030099868774414
0.28333282470703125,129.00114848709592,37.39377567231359,612.7337319362837,0.4869430139660835,2.3159098625183105
0.29166603088378906,133.4762774876391,39.97718320063633,619.8757841217691,0.506405420601368,2.3281099796295166
0.2999992370605469,137.9610938669943,42.66009594176956,626.925622274516,0.5258677676320076,2.339709997177124
0.3083324432373047,142.44686119981338,45.453433497887595,633.882955651663,0.5454260185360909,2.3508100509643555
0.3166656494140625,146.92338702824657,48.358323387294305,640.7529583738084,0.5650801733136177,2.3613100051879883
0.3249988555908203,151.40085183351346,51.37351661032297,647.5330132697529,0.5848301723599434,2.371309995651245
0.3333320617675781,155.86919661575732,54.500250190010064,654.2217779194036,0.6047719195485115,2.380810022354126
0.34166526794433594,160.31843594996334,57.739263247310376,660.8313487667082,0.6246178224682808,2.3898098468780518
0.34999847412109375,164.7495758730726,61.10076021670393,667.3512335215003,0.6446554139256477,2.3983099460601807
0.35833168029785156,169.16174380613708,64.57464616844332,673.7936771888266,0.6646930649876595,2.406409978866577
0.3666667938232422,173.55481826779402,68.16093307915878,680.155055766328,0.68482656031847,2.414109945297241
0.375,177.9188377862891,71.86060303253083,686.431963067803,0.7049600556492805,2.4213099479675293
0.3833332061767578,182.2538023616223,75.67365602855946,692.6276558335161,0.7251893952488899,2.4282100200653076
0.3916664123535156,186.54988398003235,79.60118365565779,698.7378187276187,0.7455146387219429,2.4347100257873535
0.39999961853027344,190.80693720689604,83.64295492773037,704.7728970495634,0.7658398821949959,2.440809965133667
0.40833282470703125,195.0251074768366,87.79920083087266,710.7268437867568,0.7862610295414925,2.446509838104248
0.41666603088378906,199.19428788347642,92.07067246266969,716.6031171090988,0.8066821172833443,2.4519100189208984
0.4249992370605469,203.31462386143886,96.45760080921694,722.4086444132778,0.8271032646298409,2.4569098949432373
0.4333324432373047,207.3859819527308,100.9598763657818,728.1388560290154,0.8476202562451363,2.4616098403930664
0.4416656494140625,211.39852216696076,105.57846923941452,733.793144784906,0.8682331517338753,2.4660098552703857
0.4499988555908203,215.3511529157157,110.30355141635391,739.37262131729,0.8887501433491707,2.4701099395751953
0.4583320617675781,219.23499233902407,115.1458115126788,744.8782535785456,0.9092670753598213,2.4740099906921387
0.46666526794433594,223.0489608251031,120.0955429959909,750.3218769835719,0.9300717189908028,2.477609872817993
0.47499847412109375,226.79327738341797,125.15247895030393,755.6899752210686,0.950684554874897,2.480910062789917
0.48333168029785156,230.46858360682108,130.3268597399887,760.9879541431889,0.9713933542370796,2.483909845352173
0.4916667938232422,234.06331830028577,135.59970857532636,766.2206794591475,0.9921020343899727,2.4867098331451416
0.5,237.57819663150622,140.98076791860598,771.3878312041305,1.0129066780209541,2.4893100261688232
0.5083332061767578,241.00340256335153,146.47125083960353,776.4936470463277,1.0336154773831367,2.491610050201416
0.5166664123535156,244.347891530635,152.0599708201585,781.5327738883553,1.0544200018048286,2.4937100410461426
0.5249996185302734,247.6016165101302,157.7482863646702,786.5131365276219,1.07522464543581,2.495609998703003
0.5333328247070312,250.75482306291786,163.53679115947008,791.4285555000246,1.0960292890667915,2.497309923171997
0.5416660308837891,253.81725365128696,169.4247700368639,796.2814860768196,1.116833932697773,2.498810052871704
0.5499992370605469,256.77905630821584,175.41307162253895,801.0701366094781,1.1377344205975533,2.500109910964966
0.5583324432373047,259.63924895002407,181.49173444474098,805.8058493740991,1.1585389450192451,2.5012099742889404
0.5666656494140625,262.38788208158746,187.66186206851336,810.4838036168454,1.1794394329190254,2.502110004425049
0.5749988555908203,265.0249437262758,193.92333301249326,815.1013680777643,1.2002440765500069,2.502810001373291
0.5833320617675781,267.54945180040863,200.26618580492627,819.6589398172662,1.2211445644497871,2.5034098625183105
0.5916652679443359,269.9624003642967,206.70050339892967,824.163539827236,1.2419492080807686,2.503809928894043
0.5999984741210938,272.2628073342595,213.2163243227491,828.6177648966775,1.2628496959805489,2.5041098594665527
0.6083316802978516,274.4397052016016,219.80442622558505,833.011021851379,1.2837501838803291,2.5042099952697754
0.6166667938232422,276.49399049853156,226.47514699991066,837.3517887581356,1.3045548275113106,2.5042099952697754
0.625,278.424900150834,233.2182582579854,841.6481792800657,1.3254553154110909,2.504009962081909
0.6333332061767578,280.2223512053918,240.03475406012004,845.8868082333577,1.3463558033108711,2.5037100315093994
0.6416664123535156,281.8963171105895,246.92377380399682,850.0771068841627,1.367160327732563,2.5032100677490234
0.6499996185302734,283.43596381572485,253.87620464354904,854.2151352752438,1.3880608156323433,2.502609968185425
0.6583328247070312,284.8410603347024,260.8921920133999,858.309272631297,1.4088654592633247,2.5019099712371826
0.6666660308837891,286.1107460652045,267.96176246516484,862.3562456936977,1.429765947163105,2.5011098384857178
0.6749992370605469,287.23615112389,275.0957260962857,866.3522614156404,1.4505705907940865,2.5002100467681885
0.6833324432373047,288.2261453941001,282.28327280932064,870.3032800064652,1.471375234425068,2.4992098808288574
0.6916656494140625,289.0697853203999,289.5154232161959,874.2050532522206,1.4922757223248482,2.498110055923462
0.6999988555908203,289.7680410098397,296.802017307303,878.0629251228547,1.51308024674654,2.4969098567962646
0.7083320617675781,290.3299158037538,304.13235448993277,881.8817055362714,1.5337890461087227,2.495609998703003
0.7166652679443359,290.7445636748098,311.49720043665536,885.6563105803232,1.5545936897397041,2.4942100048065186
0.7249984741210938,291.00276227220803,318.90752265616624,889.3907561900693,1.575398214161396,2.4927098751068115
0.7333316802978516,291.11375790000864,326.35259660249574,893.0796119516004,1.5961070135235786,2.491109848022461
0.7416667938232422,291.07655649790087,333.82233932252666,896.7260736806111,1.61691165715456,2.489409923553467
0.75,290.8819237384549,341.32759684359155,900.3346242943054,1.6376203373074532,2.48760986328125
0.7583332061767578,290.53811186542,348.8475616666036,903.8977040755665,1.6583291366696358,2.4857099056243896
0.7666664123535156,290.0360319859897,356.3933108049906,907.4180723940489,1.6790378168225288,2.4838099479675293
0.7749996185302734,289.3846395349774,363.9536577405923,910.9083400688243,1.6997466161847115,2.4818098545074463
0.7833328247070312,288.573985017259,371.5297060384518,914.3608718729724,1.7203594520688057,2.4797098636627197
0.7916660308837891,287.60420189082765,379.1215652033018,917.7658909494351,1.7410681322216988,2.477609872817993
0.7999992370605469,286.48412410913375,386.71806069361213,921.1369896359154,1.7616810873150826,2.475409984588623
0.8083324432373047,285.20283207000296,394.31045608403457,924.4732237037393,1.7822939231991768,2.473209857940674
0.8166656494140625,283.7612839038553,401.9084698835977,927.7782055710975,1.802906759083271,2.470909833908081
0.8249988555908203,282.15864296163363,409.5023716066428,931.0406895237194,1.8234237506985664,2.4685099124908447
0.8333320617675781,280.4047372570992,417.0910696647566,934.2706749838862,1.8440367057919502,2.4661099910736084
0.8416652679443359,278.4886232348171,424.66558466986544,937.4682852532906,1.8645536974072456,2.4636099338531494
0.8499984741210938,276.4104343527805,432.2260261267018,940.6335990909538,1.8849747255444527,2.4611098766326904
0.8583316802978516,274.1689216113227,439.76221355404624,943.7662202365922,1.9054918363690376,2.458509922027588
0.8666667938232422,271.77529548186465,447.2833453494378,946.8618001496553,1.9260087087750435,2.4559099674224854
0.875,269.2186124089715,454.7804421248026,949.9323922444133,1.9463338926434517,2.45320987701416
0.8833332061767578,266.5075968413613,462.24246279660355,952.9678435322998,1.9668510034680367,2.450510025024414
0.8916664123535156,263.6325302700052,469.67036549526057,955.9760245140313,1.9872720316052437,2.447809934616089
0.8999996185302734,260.6032526852948,477.06318011372343,958.9508346635264,2.007597453892231,2.44500994682312
0.9083328247070312,257.40981459210604,484.4220102170355,961.8949191020981,2.028018482029438,2.4422099590301514
0.9166660308837891,254.06118340188237,491.7357907683991,964.8151330157638,2.048343665897846,2.43930983543396
0.9249992370605469,250.5565104889365,498.9946698007926,967.7039287022161,2.0685730054974556,2.4364099502563477
0.9333324432373047,246.89665645558603,506.20862076260045,970.5637184318949,2.088898427784443,2.4335100650787354
0.9416656494140625,243.0806272415202,513.3675607007056,973.3920876060203,2.1091277673840523,2.4305100440979004
0.9499988555908203,239.11838431849333,520.4705075314274,976.188622855971,2.1293571069836617,2.4275100231170654
0.9583320617675781,234.99900808433108,527.5087248294178,978.9637396790231,2.149586446583271,2.4245100021362305
0.9666652679443359,230.72258409050556,534.4818361739581,981.7137802758266,2.1697199419140816,2.4215099811553955
0.9749984741210938,226.29886677593618,541.3892478787167,984.4349849191282,2.189949281513691,2.418410062789917
0.9833316802978516,221.72807515008805,548.2306930277075,987.1376287348903,2.2099869325757027,2.4153099060058594
0.9916667938232422,217.0091176245481,554.9963436071693,989.8112834725267,2.230120427906513,2.412209987640381
1.0,212.14198222268612,561.6860781357391,992.4589818759607,2.2502539232373238,2.4091100692749023
1.0083332061767578,207.12571081408205,568.2901781043884,995.0827769736566,2.2702915742993355,2.405910015106201
1.0166664123535156,201.97122300091024,574.8173799384654,997.6852911879873,2.290329225361347,2.4027099609375
1.0249996185302734,196.6775486761204,581.2578436475785,1000.2544760557429,2.31027103215456,2.399509906768799
1.0333328247070312,191.2438272373949,587.6015957833431,1002.8062866435181,2.330212600529194,2.3963098526000977
1.041666030883789,185.67078582905827,593.8585002894114,1005.335718669011,2.3501544073224068,2.3934099674224854
1.0499992370605469,179.95758780205335,600.0188266801242,1007.831010558269,2.3700962141156197,2.391010046005249
1.0583324432373047,174.11318859119348,606.0713884373213,1010.2940561208154,2.3900380209088326,2.389009952545166
1.0666656494140625,168.12874226639792,612.0272386211699,1012.733867365694,2.4098837450146675,2.387310028076172
1.0749988555908203,162.0129852530148,617.8754576294957,1015.1453313968049,2.4298255518078804,2.3859100341796875
1.0833320617675781,155.7760124807915,623.6151728833511,1017.53539141024,2.4496715143322945,2.3847098350524902
1.091665267944336,149.40783852471324,629.2471235036904,1019.8921200492998,2.4695172384381294,2.383810043334961
1.0999984741210938,142.91745474948402,634.7604874164421,1022.2298169558983,2.4893632009625435,2.383009910583496
1.1083316802978516,136.3048611551039,640.1552646216057,1024.5424051800396,2.5092091634869576,2.3824100494384766
1.1166667938232422,129.57006971820311,645.4315766005445,1026.832466450353,2.5291507318615913,2.3819098472595215
1.125,122.71305648552112,650.5891803905328,1029.0962751458933,2.5489966943860054,2.381510019302368
1.1333332061767578,115.74269134039918,655.6172658941284,1031.3307501398592,2.5686507299542427,2.3812098503112793
1.1416664123535156,108.66008982451086,660.5259040878187,1033.5485769293655,2.5885925367474556,2.381010055541992
1.1499996185302734,101.47322528898897,665.2939469816888,1035.7433846849522,2.6084384992718697,2.3809099197387695
1.1583328247070312,94.17314229902018,669.9325810938991,1037.9133810978335,2.628188379108906,2.380810022354126
1.166666030883789,86.7697903497286,674.4407028594062,1040.0609817746556,2.6481301859021187,2.380810022354126
1.1749992370605469,79.26206587607082,678.8083627830861,1042.1883797718908,2.6679761484265327,2.380810022354126
1.1833324432373047,71.66006380779427,683.0346882859908,1044.2845041218536,2.6878218725323677,2.3809099197387695
1.1916656494140625,63.95367723852131,687.1204304657055,1046.3598549640499,2.7076678350567818,2.381010055541992
1.1999988555908203,56.15301307462956,691.0648382246452,1048.4075395071898,2.727513797581196,2.3811099529266357
1.2083320617675781,48.26703872756261,694.8568465260121,1050.4337276925937,2.747359521687031,2.3812098503112793
1.216665267944336,40.28567124420326,698.4974494301168,1052.4442179490377,2.767205484211445,2.381309986114502
1.2249984741210938,32.21900555429895,701.9857743580118,1054.4226385704314,2.786955364048481,2.3814098834991455
1.2333316802978516,24.076991152973747,705.3207177446534,1056.3871284568456,2.806897170841694,2.381510019302368
1.2416667938232422,15.849545087110457,708.5032736503525,1058.3303570689961,2.826743133366108,2.3816099166870117
1.25,7.5466288284633904,711.5324599914286,1060.2477548671932,2.846493013203144,2.381809949874878
1.2583332061767578,-0.8226447769005034,714.3974427171794,1062.1443703359992,2.866434819996357,2.3819098472595215
1.2666664123535156,-9.26726709368532,717.109043901677,1064.0223631605645,2.886280782520771,2.3821098804473877
1.2749996185302734,-17.778501696542975,719.6563439427468,1065.8789620239947,2.906126506626606,2.3822100162506104
1.2833328247070312,-26.355972164754604,722.0394283918613,1067.706427002892,2.92597246915102,2.382309913635254
1.291666030883789,-34.990093447284764,724.2572296138677,1069.5188402610336,2.945818431675434,2.3824100494384766
1.2999992370605469,-43.680610604777456,726.3098451368681,1071.3117648784842,2.965664155781269,2.38250994682312
1.3083324432373047,-52.418677707152014,728.1862219006955,1073.0870643727856,2.985605962574482,2.3826098442077637
1.3166656494140625,-61.213274142482234,729.8973034607845,1074.837397150272,3.005451925098896,2.3827099800109863
1.3249988555908203,-70.05528706470119,731.432255766433,1076.567098438854,3.025297649204731,2.38280987739563
1.3333320617675781,-78.93390637636716,732.799948700982,1078.2790454113065,3.045143675302164,2.3829100131988525
1.341665267944336,-87.85011416116073,733.9904207926774,1079.9659770022238,3.064989399407999,2.383009910583496
1.3499984741210938,-96.80389844245155,735.0037935228818,1081.640245496541,3.084835361932413,2.3831100463867188
1.3583316802978516,-105.79428911318944,735.849906881987,1083.2938295290592,3.104681324456827,2.3832099437713623
1.3666667938232422,-114.81229480867027,736.5179387959207,1084.9288306691205,3.124527048562662,2.383309841156006
1.375,-123.85780602416152,737.00775580669,1086.5475143412775,3.144468855355875,2.3834099769592285
1.3833332061767578,-132.92109227400428,737.3185212652377,1088.1411668313656,3.164314817880289,2.3834099769592285
1.3916664123535156,-142.00204405346597,737.4501017135708,1089.7215858781815,3.184160541986124,2.3834099769592285
1.3999996185302734,-151.1005279045535,737.4026066564215,1091.2802201434333,3.204006504510538,2.3834099769592285
1.4083328247070312,-160.20683729486848,737.1749564820075,1092.8185222741379,3.223948311303751,2.3834099769592285
1.416666030883789,-169.32085074304808,736.7671392136981,1094.3455760287115,3.243698191140787,2.3834099769592285
1.4249992370605469,-178.43259480070776,736.178294249176,1095.853540723402,3.263639997934,2.3834099769592285
1.4333324432373047,-187.54208144447773,735.408300107078,1097.3426551251423,3.283485960458414,2.3834099769592285
1.4416656494140625,-196.64929869772772,734.4572782687673,1098.8131617190265,3.303331684564249,2.3834099769592285
1.4499988555908203,-205.7442970653338,733.3241251692002,1100.265310814287,3.323177647088663,2.3834099769592285
1.4583320617675781,-214.82718605202842,732.00897426637,1101.6985233432476,3.343119453881876,2.3834099769592285
1.466665267944336,-223.89785615307903,730.5116921022836,1103.122386752433,3.362869333718912,2.3834099769592285
1.4749984741210938,-232.94536381305085,728.8412580650147,1104.526223458895,3.382811140512125,2.3834099769592285
1.4833316802978516,-241.97080062035695,726.9878441408022,1105.918704825293,3.4027529473053377,2.383309841156006
1.4916667938232422,-250.97405707026473,724.9513168716528,1107.2891804940589,3.422502827142374,2.3832099437713623
1.5,-259.94417763070913,722.7407771270035,1108.6457703464725,3.442348789666788,2.3831100463867188
