time,x,y,speed,angle,angular speed
0.0,0.0,0.0,2299.996716742667,0.0,1.9772099256515503
0.008331298828125,19.066870063208633,-1.1916307069713699,2292.064250376938,0.01649022102355957,1.9734100103378296
0.01666259765625,38.078712732929645,-2.06789283884091,2284.110320329949,0.032788753509521484,1.9705100059509277
0.024993896484375,57.03754369212287,-2.6385287905988335,2276.1362885496064,0.049279212951660156,1.9684100151062012
0.0333251953125,75.93356695958022,-2.905596496005302,2268.1487457771022,0.0656735897064209,1.9670100212097168
0.041656494140625,94.76472460154154,-2.859299973852245,2260.155141987713,0.08206796646118164,1.9661099910736084
0.04998779296875,113.5331106194908,-2.509458906918379,2252.159285424761,0.09846234321594238,1.9656099081039429
0.058319091796875,132.22685254923005,-1.8482455938141662,2244.1715140064116,0.1147608757019043,1.9654099941253662
0.0666656494140625,150.83818245866414,-0.8875201325844024,2236.1814288075293,0.1310594081878662,1.9655100107192993
0.0749969482421875,169.36715135784053,0.3726968667385506,2228.1978041710995,0.14754986763000488,1.965809941291809
0.0833282470703125,187.80391483167418,1.9304309412596012,2220.2180394793395,0.16394424438476562,1.9662100076675415
0.0916595458984375,206.1484940055653,3.785655297869816,2212.2381592701836,0.18033862113952637,1.9668099880218506
0.0999908447265625,224.39110165755284,5.936344978994526,2204.266068381954,0.1967329978942871,1.9675099849700928
0.1083221435546875,242.53375089442616,8.372694728810814,2196.297486218566,0.2131274382220667,1.968209981918335
0.1166534423828125,260.5646413874349,11.102484845566934,2188.3389784598457,0.22952181497682744,1.9690099954605103
0.125,278.48577258913,14.11593841231803,2180.3850741104484,0.24601227441896611,1.9698100090026855
0.133331298828125,296.2873709317888,17.411002132611372,2172.441689769004,0.26240665117372686,1.9706100225448608
0.14166259765625,313.9694302323349,20.987705891094166,2164.5133835444317,0.2788010279284876,1.9714099168777466
0.149993896484375,331.5241900298347,24.834191135490777,2156.584655381389,0.29529124895204717,1.9722099304199219
0.1583251953125,348.94961235651795,28.960289141848442,2148.6702395973284,0.31178170839418584,1.9730099439620972
0.166656494140625,366.2379442226132,33.35414290366067,2140.763897922883,0.3281760851489466,1.9738099575042725
0.17498779296875,383.38917757725324,38.015781919132394,2132.870127786916,0.3445704619037073,1.9746099710464478
0.183319091796875,400.39352006205354,42.94318016797264,2124.9827272952184,0.3610606829272669,1.975409984588623
0.1916656494140625,417.2509702761711,48.136337360349714,2117.1047798174345,0.3776469866382044,1.9761099815368652
0.1999969482421875,433.9635638526383,53.58542173716347,2109.2312544757992,0.39404136339296514,1.9768099784851074
0.2083282470703125,450.52149513302203,59.28846685419625,2101.374167083593,0.4105315844165247,1.9774099588394165
0.2166595458984375,466.92478208684685,65.24541410148049,2093.526396183453,0.42692596117128545,1.9780099391937256
0.2249908447265625,483.16562831413034,71.44452214667564,2085.6822053182827,0.4434164206134241,1.9785100221633911
0.2333221435546875,499.23427261330306,77.88367792403457,2077.854163887562,0.4600024859057825,1.979009985923767
0.2416534423828125,515.1404898401729,84.56496616042634,2070.0333189559424,0.4764927069293421,1.97940993309021
0.25,530.8744914846935,91.48633046785997,2062.2231208652734,0.49298316637148076,1.9798099994659424
0.258331298828125,546.4285047197787,98.63597206335419,2054.425577546068,0.5094733873950403,1.9801099300384521
0.26666259765625,561.8025506708284,106.01386415380011,2046.6349239007707,0.5259636084185999,1.9803099632263184
0.274993896484375,576.9966082124424,113.62003353230662,2038.8503775480797,0.5425499121295374,1.9805099964141846
0.2833251953125,592.0008901226599,121.45245524129908,2031.0852875790324,0.5589442888842981,1.9806100130081177
0.291656494140625,606.8174244505938,129.50132711649283,2023.3308790005392,0.5754345099078577,1.9807099103927612
0.29998779296875,621.4462111962438,137.7666491578879,2015.587983336283,0.5920208136187952,1.9807099103927612
0.308319091796875,635.8794762444387,146.23659115208667,2007.8472967029086,0.6085110346423548,1.9807099103927612
0.3166656494140625,650.1172494798253,154.91115928216573,2000.1218080508868,0.6250012556659144,1.9806100130081177
0.3249969482421875,664.149707612719,163.7883522921211,1992.4115453758297,0.6415875593768519,1.9804099798202515
0.3333282470703125,677.9788786922327,172.85836801766806,1984.7158092013992,0.6579819361316126,1.9802099466323853
0.3416595458984375,691.6047689014431,182.12117657415945,1977.028582210187,0.6744721571551722,1.9799100160598755
0.3499908447265625,705.0175729845271,191.57476485480592,1969.349117743835,0.6910584608661097,1.979509949684143
0.3583221435546875,718.2193457837067,201.20935182072301,1961.6896066632737,0.7074528376208704,1.9791100025177002
0.3666534423828125,731.2100574143344,211.02493128883413,1954.0397756156033,0.72394305864443,1.9786099195480347
0.375,743.9897346695196,221.02152438453948,1946.4070428833952,0.7404332796679896,1.9780099391937256
0.383331298828125,756.5505797325196,231.1872648267177,1938.780414589408,0.7569237391101282,1.9774099588394165
0.39166259765625,768.8946412624799,241.5124014611315,1931.1756818823703,0.7734139601336878,1.9767099618911743
0.399993896484375,781.0101220221885,252.0046996437056,1923.5769330559267,0.7899041811572474,1.9760099649429321
0.4083251953125,792.9087955472866,262.6563579507915,1916.0000675578594,0.806394640599386,1.9752099514007568
0.416656494140625,804.582908332635,273.45559717903905,1908.4284556655557,0.8227890173541468,1.9743099212646484
0.42498779296875,816.0324665613102,284.40238744380105,1900.8778261920634,0.8391833941089075,1.9734100103378296
0.433319091796875,827.2476917705984,295.49473676368825,1893.3363521885776,0.8556736151324671,1.972409963607788
0.4416656494140625,838.2403904723263,306.72483495580525,1885.8088453114444,0.8721640745746058,1.9714099168777466
0.4499969482421875,849.0007512275946,318.09069879800995,1878.3022812925185,0.8885584513293665,1.9703099727630615
0.4583282470703125,859.5287833110181,329.59228346333146,1870.8124912550052,0.9049528280841272,1.9691100120544434
0.4666595458984375,869.8167332174573,341.2178097484196,1863.327062307706,0.921347204838888,1.9679099321365356
0.4749908447265625,879.8744360873826,352.9692969431403,1855.8612458213292,0.9377415815936487,1.9666099548339844
0.4833221435546875,889.6939967212643,364.8348975729515,1848.4101726263618,0.9540401140796106,1.965309977531433
0.4916534423828125,899.275533111922,376.8146438413213,1840.9825919694497,0.9705305735217493,1.9639099836349487
0.5,908.6210717626994,388.89874105512683,1833.5649315937299,0.9868291060077112,1.9624099731445312
0.508331298828125,917.730494680777,401.0871570109,1826.1644726878603,1.0031276384936731,1.9609099626541138
0.51666259765625,926.6060045858436,413.3701490563011,1818.7752809240442,1.0195220152484339,1.9593099355697632
0.524993896484375,935.2355965939257,425.75543179455684,1811.3979884493133,1.0358205477343958,1.9577099084854126
0.5333251953125,943.6332430959307,438.2254798275836,1804.0469038328984,1.0521190802203577,1.9560099840164185
0.541656494140625,951.7891419275738,450.77826510626846,1796.7083916538872,1.0684176127063196,1.9543099403381348
0.54998779296875,959.7032333195609,463.4137752644581,1789.3896183727384,1.0846203009234827,1.9525099992752075
0.558319091796875,967.375517658334,476.1320084343623,1782.0834998313287,1.1009188334094446,1.9507099390029907
0.5666656494140625,974.8080804436471,488.9231860245921,1774.7892191405492,1.1171215216266077,1.9488099813461304
0.5749969482421875,982.0029479856224,501.77751427592,1767.5137632087435,1.1334200541125696,1.946810007095337
0.5833282470703125,988.9502583506812,514.6929527730799,1760.2577260278872,1.1496227423297327,1.944809913635254
0.5916595458984375,995.6598734724024,527.6715419313377,1753.019635419641,1.165729586278097,1.9428099393844604
0.5999908447265625,1002.1337593119509,540.7034784269987,1745.7923951925338,1.18193227449526,1.9409099817276
0.6083221435546875,1008.3621740540001,553.7867437754171,1738.5714314499146,1.1981349627124231,1.9398099184036255
0.6166534423828125,1014.3569455932933,566.913575068164,1731.3649520203996,1.2143376509295862,1.9394099712371826
0.625,1020.1082112233674,580.0819356255544,1724.1654817863289,1.2304442564593714,1.9395099878311157
0.633331298828125,1025.6180587626297,593.2820356494564,1716.9866175675752,1.2465511004077356,1.9401099681854248
0.64166259765625,1030.8844003926727,606.5236649380018,1709.8143112258815,1.2627537886248987,1.9411100149154663
0.649993896484375,1035.9212123688264,619.7892794152024,1702.6513659526383,1.2789564768420618,1.9424099922180176
0.6583251953125,1040.7185101273851,633.0768288758094,1695.502928127786,1.295159165059225,1.943910002708435
0.666656494140625,1045.276474522001,646.3863429471203,1688.3584851363091,1.311361853276388,1.9457099437713623
0.67498779296875,1049.5949844683162,659.7178043679907,1681.2229456186487,1.327564541493551,1.9476100206375122
0.683319091796875,1053.6761308762764,673.0614083979654,1674.0959134146112,1.343863073979513,1.9497100114822388
0.6916656494140625,1057.5218727510849,686.4073853335776,1666.9809162809229,1.360161606465475,1.9519100189208984
0.6999969482421875,1061.132276045113,699.7557176563331,1659.8730047701551,1.376364294682638,1.9542099237442017
0.7083282470703125,1064.5073376668222,713.1064203085557,1652.7675489202122,1.3926628271686,1.9565099477767944
0.7166595458984375,1067.6470576162128,726.4594932902451,1645.6684437620218,1.4090572039233606,1.9589099884033203
0.7249908447265625,1070.553404173103,739.8051220709638,1638.5802251879165,1.4253557364093226,1.9613099098205566
0.7333221435546875,1073.2284620643625,753.1335317949038,1631.497468037488,1.4417502323733729,1.9637099504470825
0.7416534423828125,1075.6721684291579,766.4447250382356,1624.424622016766,1.4581446091281336,1.9661099910736084
0.75,1077.884648989155,779.7386966486181,1617.3517316187801,1.4745391050921839,1.9685099124908447
0.758331298828125,1079.8677432109685,793.0056521902784,1610.2835130902447,1.4909334818469446,1.9708099365234375
0.76666259765625,1081.631441841381,806.2476119838177,1603.2228169635107,1.5074237028705042,1.9731099605560303
0.774993896484375,1083.1658139029046,819.4625680747879,1596.1648122537117,1.5238181988345545,1.975409984588623
0.7833251953125,1084.472947213946,832.6407306650573,1589.1179328247333,1.540308419858114,1.9776099920272827
0.791656494140625,1085.5527881882883,845.7820575038256,1582.071208044111,1.5567987600909632,1.9797099828720093
0.79998779296875,1086.4172206255462,858.8788167267214,1575.0297260528107,1.5733849445926111,1.9818099737167358
0.808319091796875,1087.0564423614353,871.928980284632,1567.9946639128966,1.5898752848254603,1.9838099479675293
0.8166656494140625,1087.4801957909456,884.9345638605168,1560.9711778652165,1.6064613501178187,1.9857099056243896
0.8249969482421875,1087.6807603851237,897.883779491779,1553.9476026665736,1.6229516903506678,1.9876099824905396
0.8333282470703125,1087.6678847220358,910.778612976731,1546.9314308225316,1.6395378748523157,1.9894099235534668
0.8416595458984375,1087.4436566200898,923.6092745172414,1539.92003649289,1.6561240593539637,1.9911099672317505
0.8499908447265625,1087.0080698962088,936.3757939979572,1532.9204796016963,1.6728060881244105,1.992709994316101
0.8583221435546875,1086.3610647810988,949.0781590527254,1525.9299900368492,1.6893922726260584,1.9942100048065186
0.8666534423828125,1085.5046693238723,961.7065675172613,1518.943627733654,1.7060743013965052,1.995710015296936
0.875,1084.4389494769005,974.2610018730711,1511.9582492993666,1.7226604858981531,1.9971100091934204
0.883331298828125,1083.1638928740301,986.7415218894488,1504.980479908944,1.7393425146686,1.9984099864959717
0.89166259765625,1081.6912761424412,999.1403112004226,1498.0165842667784,1.7560245434390467,1.9996099472045898
0.899993896484375,1080.0210992821333,1011.4573698059926,1491.0504059687826,1.7727065722094935,2.001610040664673
0.9083251953125,1078.1456417641532,1023.6809097435614,1484.0780730733427,1.7893886009799402,2.004610061645508
0.916656494140625,1076.074652166567,1035.8129168114415,1477.1079485316893,1.806070629750387,2.0084099769592285
0.92498779296875,1073.808118123222,1047.8534507789277,1470.1371329892984,1.822944466267721,2.012809991836548
0.933319091796875,1071.3579419829632,1059.7946901277066,1463.162176117197,1.8397223393069666,2.0178098678588867
0.9416656494140625,1068.714267995288,1071.6345645578654,1456.1899762189798,1.8565961758243006,2.023210048675537
0.9499969482421875,1065.8770714278903,1083.3731936079923,1449.206971710173,1.873469893132345,2.029010057449341
0.9583282470703125,1062.8582546296152,1095.0027557597748,1442.2298213010718,1.8904395739184778,2.0351099967956543
0.9666595458984375,1059.6577578311685,1106.5232386470598,1435.2451511923716,1.9074092547046106,2.041409969329834
0.9749908447265625,1056.2755686663963,1117.9347020391415,1428.2593643395396,1.9244747797595423,2.04790997505188
0.9833221435546875,1052.713739916719,1129.2272242331464,1421.269326652604,1.9416361490832728,2.0545098781585693
0.9916534423828125,1048.982049014114,1140.4029528167766,1414.2823512557259,1.9587976376162928,2.0612099170684814
1.0,1045.0707659297445,1151.4598123377775,1407.293441059619,1.976054851208822,2.0679099559783936
1.008331298828125,1040.9915889722665,1162.3900637179659,1400.2997855772771,1.993312184010641,2.074709892272949
1.01666259765625,1036.7446500464212,1173.1936719203532,1393.2986183889902,2.0106653610812586,2.081510066986084
1.024993896484375,1032.3298296136204,1183.8706122126337,1386.2941452865073,2.028114382420675,2.088209867477417
1.0333251953125,1027.7492628954126,1194.411166932123,1379.2834255335456,2.0455634037600916,2.094909906387329
1.041656494140625,1023.0126325174936,1204.8173393956279,1372.2715678190875,2.063012425099508,2.101609945297241
1.04998779296875,1018.1200703846052,1215.0890945661604,1365.2559471704124,2.0807490984546106,2.1082098484039307
1.058319091796875,1013.0734726411185,1225.216665316424,1358.2389016288373,2.098293964062826,2.1147098541259766
1.0666656494140625,1007.8729114224809,1235.2000042432771,1351.2174570179184,2.1159347931491297,2.121109962463379
1.0749969482421875,1002.5183619963864,1245.039230885309,1344.1889652721234,2.133767310773031,2.1274099349975586
1.0833282470703125,997.0196512594258,1254.7362537530435,1337.1644487884125,2.151408020650045,2.133509874343872
1.0916595458984375,991.3787351252646,1264.2813180853373,1330.131293066581,2.169336501752035,2.139509916305542
1.0999908447265625,985.595673363197,1273.6744362483437,1323.0989488438875,2.1871690193759363,2.1454100608825684
1.1083221435546875,979.6822838204675,1282.9078938961852,1316.0583818815578,2.2050973812686365,2.1511099338531494
1.1166534423828125,973.6365034109749,1291.9913612884047,1309.01842575483,2.223121706639425,2.156709909439087
1.125,967.4604075869739,1300.9151083961647,1301.9810411256758,2.2410500685321253,2.162109851837158
1.133331298828125,961.156024397577,1309.6693330551811,1294.9428556755804,2.2591702381717127,2.167409896850586
1.14166259765625,954.7309960532141,1318.2659005158396,1287.8964479137478,2.2771944443332117,2.1725099086761475
1.149993896484375,948.1875546431876,1326.6949261737257,1280.8523897631746,2.2955064217196863,2.1775100231170654
1.1583251953125,941.5254961273079,1334.9564924689691,1273.806933945807,2.3135306278811854,2.182309865951538
1.166656494140625,934.7547545746016,1343.0525924136946,1266.756232158814,2.3317466417895716,2.1869099140167236
1.17498779296875,927.8654556853369,1350.9812453619304,1259.7051427964884,2.3500585595714014,2.191309928894043
1.183319091796875,920.879303972643,1358.7366578444767,1252.6583999946097,2.3683704773532313,2.1956100463867188
1.1916656494140625,913.7863777336469,1366.3167770799141,1245.6157030290283,2.386682395135061,2.199709892272949
1.1999969482421875,906.5965863050687,1373.7237156189565,1238.5762068932652,2.4050901571856897,2.2036099433898926
1.2083282470703125,899.3098225144728,1380.9573889600028,1231.5439482188926,2.423402015362875,2.2073099613189697
1.2166595458984375,891.9380361138453,1388.010047720188,1224.503404985684,2.441905681286947,2.2108099460601807
1.2249908447265625,884.4811549677393,1394.8817393026532,1217.472079865066,2.4603134433375757,2.214210033416748
1.2333221435546875,876.9370912577467,1401.5822535055297,1210.447693629604,2.478817109261648,2.21740984916687
1.2416534423828125,869.3177473327132,1408.1037688105048,1203.4193635848624,2.4973207155810755,2.220409870147705
1.25,861.6153964806081,1414.4345271396285,1196.3979809052314,2.5158243815051478,2.223209857940674
1.258331298828125,853.8474480391577,1420.5882898876575,1189.3862275301185,2.53432804742922,2.2258100509643555
1.26666259765625,846.0042667858073,1426.5631258732324,1182.3802733080727,2.552927557622091,2.228209972381592
1.274993896484375,838.1073655596506,1432.3532642979885,1175.3823039968986,2.571527067814962,2.230409860610962
1.2833251953125,830.146954562556,1437.9566173435182,1168.387569295297,2.5901265780078333,2.232409954071045
1.291656494140625,822.1328833619492,1443.375285194382,1161.3977594969344,2.6087260882007044,2.2342100143432617
1.29998779296875,814.0651519578304,1448.6092678505804,1154.4214746139182,2.627421502267019,2.235909938812256
1.308319091796875,805.9437005809052,1453.6585529459599,1147.452745367792,2.64602101245989,2.237410068511963
1.3166656494140625,797.778343761611,1458.5251087603388,1140.492436477304,2.66471636692156,2.2387099266052246
1.3249969482421875,789.5788712980801,1463.2110231121246,1133.5418102100493,2.683411780987875,2.239809989929199
1.3333282470703125,781.3355407953213,1467.7142803183579,1126.6008097441425,2.702011291180746,2.2407100200653076
1.3416595458984375,773.0600752942973,1472.0270217622658,1119.675860189252,2.7207067052470606,2.24141001701355
1.3499908447265625,764.7603437164619,1476.1612219281412,1112.7603086894428,2.7394020597087305,2.241909980773926
1.3583221435546875,756.43833907394,1480.1069467469579,1105.8540016548754,2.758097473775045,2.242310047149658
1.3666534423828125,748.0919611821711,1483.8740457861409,1098.9623521549158,2.7768887321101587,2.2425098419189453
1.375,739.7213295797442,1487.462543777997,1092.0786307043877,2.79548824230303,2.2425098419189453
1.383331298828125,731.3381673076208,1490.8645821057542,1085.2076042262847,2.814087752495901,2.242310047149658
1.39166259765625,722.9502958841142,1494.092063118257,1078.347823200918,2.8327831665622156,2.241909980773926
1.399993896484375,714.5597433583372,1497.1351846512212,1071.5060782330404,2.851478550826208,2.241309881210327
1.4083251953125,706.1644219118825,1500.0037365027779,1064.680698353849,2.8701739350902002,2.2405099868774414
1.416656494140625,697.7664317293105,1502.6878691055017,1057.861150387069,2.8888693193541926,2.239609956741333
1.42498779296875,689.3734624241923,1505.1995198452253,1051.0625579046082,2.907468859349386,2.2385098934173584
1.433319091796875,680.9876265472416,1507.528779385229,1044.2783841593882,2.9261642436133783,2.2372100353240967
1.4416656494140625,672.6166137120292,1509.6875851113455,1037.5100201987163,2.9447637538062494,2.2357099056243896
1.4499969482421875,664.2605084201559,1511.6758298511393,1030.7589272350535,2.9633632639991205,2.234109878540039
1.4583282470703125,655.919191133033,1513.4934888723044,1024.0174785855797,2.9820586780654352,2.2323100566864014
1.4666595458984375,647.6025588212274,1515.1427344948484,1017.2954018683026,3.000562314187185,2.2303099632263184
1.4749908447265625,639.3105764477511,1516.6234348140295,1010.5887318429853,3.019161824380056,2.228209972381592
1.4833221435546875,631.0433037818985,1517.9356021960011,1003.898971386095,3.037665460501806,2.225909948348999
1.4916534423828125,622.8103987170591,1519.0813594961585,997.2349399354723,3.0563608745681208,2.22340989112854
1.5,614.6119457548336,1520.060599542066,990.5698859452551,3.0747686366187494,2.2216100692749023
